,BIN_LO,BIN_HI,COUNTS,ERR,A,eV
0,0.295482,0.29551700000000003,0.0,1.62319,41.95749820098077,295.4995
1,0.29551700000000003,0.295552,0.0,1.62182,41.9525291958831,295.53450000000004
2,0.295552,0.295588,0.0,1.62182,41.94749040714794,295.57
3,0.295588,0.295623,0.0,1.62045,41.942452828654126,295.6055
4,0.295623,0.295658,0.0,1.62045,41.9374873863382,295.6405
5,0.295658,0.295693,0.0,1.62045,41.93252311957101,295.6755
6,0.295693,0.295729,0.0,1.62045,41.92748913513775,295.711
7,0.295729,0.29576399999999997,0.0,1.62045,41.92245635921547,295.7465
8,0.29576399999999997,0.295799,0.0,1.6190799999999999,41.917495650136054,295.7815
9,0.295799,0.29583400000000004,0.0,1.6190799999999999,41.912536114925025,295.8165
10,0.29583400000000004,0.29586999999999997,0.0,1.61771,41.90750692792585,295.852
11,0.29586999999999997,0.29590500000000003,0.0,1.6190799999999999,41.90247894771059,295.8875
12,0.29590500000000003,0.29594000000000004,0.0,1.61771,41.89752296510308,295.9225
13,0.29594000000000004,0.295976,0.0,1.61635,41.89249738017123,295.958
14,0.295976,0.296011,0.0,1.61771,41.8874730007271,295.99350000000004
15,0.296011,0.29604600000000003,0.0,1.61635,41.882520566907296,296.0285
16,0.29604600000000003,0.296082,0.0,1.61635,41.877498580174276,296.064
17,0.296082,0.296117,0.0,1.61499,41.87247779763463,296.09950000000003
18,0.296117,0.29615199999999997,0.0,1.61635,41.86752890879219,296.13449999999995
19,0.29615199999999997,0.296188,0.0,1.61499,41.862510516395034,296.17
20,0.296188,0.296223,0.0,1.61499,41.85749332689878,296.20550000000003
21,0.296223,0.296259,0.0,1.61363,41.85247733987097,296.241
22,0.296259,0.296294,0.0,1.61363,41.84746255487937,296.2765
23,0.296294,0.296329,0.0,1.61363,41.84251957700162,296.3115
24,0.296329,0.296365,0.0,1.61363,41.8375071778716,296.34700000000004
25,0.296365,0.2964,0.0,1.61227,41.832495979488385,296.3825
26,0.2964,0.29643600000000003,0.0,1.61227,41.82748598142056,296.418
27,0.29643600000000003,0.296471,0.0,1.61227,41.822477183236884,296.4535
28,0.296471,0.296506,0.0,1.61091,41.81754010574008,296.4885
29,0.296506,0.29654200000000003,0.0,1.61227,41.812533689147315,296.524
30,0.29654200000000003,0.296577,0.0,1.61091,41.8075284711524,296.55949999999996
31,0.296577,0.296613,0.0,1.60956,41.802524451324935,296.59499999999997
32,0.296613,0.296648,0.0,1.60956,41.797521629234744,296.63050000000004
33,0.296648,0.296684,0.0,1.61091,41.792520004451866,296.666
34,0.296684,0.296719,0.0,1.6082100000000001,41.787519576546515,296.7015
35,0.296719,0.296755,0.0,1.60956,41.78252034508914,296.737
36,0.296755,0.29679,0.0,1.6082100000000001,41.77752230965039,296.7725
37,0.29679,0.29682600000000003,0.0,1.6082100000000001,41.772525469801074,296.808
38,0.29682600000000003,0.296861,0.0,1.6082100000000001,41.76752982511228,296.84350000000006
39,0.296861,0.29689699999999997,0.0,1.60686,41.76253537515525,296.879
40,0.29689699999999997,0.296933,0.0,1.60686,41.75747180048405,296.91499999999996
41,0.296933,0.296968,0.0,1.60686,41.75247975551722,296.95050000000003
42,0.296968,0.297004,0.0,1.60552,41.74748890399116,296.986
43,0.297004,0.297039,0.0,1.60552,41.742499245477916,297.0215
44,0.297039,0.297075,0.0,1.60552,41.73751077954977,297.057
45,0.297075,0.29711,0.0,1.60552,41.732523505779234,297.0925
46,0.29711,0.297146,0.0,1.60417,41.72753742373899,297.128
47,0.297146,0.297182,0.0,1.60417,41.72248233177881,297.164
48,0.297182,0.297217,0.0,1.60417,41.717498648687894,297.1995
49,0.297217,0.29725300000000004,0.0,1.60417,41.712516156040564,297.235
50,0.29725300000000004,0.29728899999999997,0.0,1.60283,41.707464702714745,297.271
51,0.29728899999999997,0.297324,0.0,1.60283,41.7024846064271,297.30649999999997
52,0.297324,0.29736,0.0,1.6014899999999999,41.697505699298176,297.342
53,0.29736,0.29739499999999996,0.0,1.60283,41.69252798090211,297.37749999999994
54,0.29739499999999996,0.297431,0.0,1.6014899999999999,41.68755145081323,297.413
55,0.297431,0.297467,0.0,1.6014899999999999,41.68250604184488,297.44899999999996
56,0.297467,0.297503,0.0,1.60016,41.67746185401186,297.485
57,0.297503,0.297538,0.0,1.60016,41.672488919723904,297.5205
58,0.297538,0.297574,0.0,1.60016,41.66751717203053,297.55600000000004
59,0.297574,0.29761,0.0,1.60016,41.66247661106722,297.592
60,0.29761,0.297645,0.0,1.5988200000000001,41.65750725198686,297.6275
61,0.297645,0.297681,0.0,1.5988200000000001,41.652539078221736,297.663
62,0.297681,0.297717,0.0,1.5988200000000001,41.64750214021786,297.699
63,0.297717,0.29775300000000005,0.0,1.5974899999999999,41.642466420275476,297.735
64,0.29775300000000005,0.297788,0.0,1.5988200000000001,41.6375018332599,297.7705
65,0.297788,0.297824,0.0,1.59616,41.63253842985271,297.80600000000004
66,0.297824,0.29786,0.0,1.5974899999999999,41.62750632765264,297.842
67,0.29786,0.297896,0.0,1.59616,41.62247544176044,297.878
68,0.297896,0.297931,0.0,1.59616,41.61751561993907,297.9135
69,0.297931,0.297967,0.0,1.59616,41.612556980022475,297.949
70,0.297967,0.298003,0.0,1.59616,41.60752970666549,297.985
71,0.298003,0.298039,0.0,1.59483,41.60250364786615,298.02099999999996
72,0.298039,0.298075,0.0,1.59483,41.597478803184345,298.057
73,0.298075,0.298111,0.0,1.59351,41.592455172180216,298.093
74,0.298111,0.298146,0.0,1.59351,41.58750250191014,298.12850000000003
75,0.298146,0.298182,0.0,1.59351,41.58255101098965,298.164
76,0.298182,0.298218,0.0,1.59351,41.57753098471065,298.20000000000005
77,0.298218,0.298254,0.0,1.59351,41.572512170364135,298.236
78,0.298254,0.29829,0.0,1.59218,41.56749456751126,298.272
79,0.29829,0.29832600000000004,0.0,1.59218,41.562478175713416,298.308
80,0.29832600000000004,0.298362,0.0,1.59086,41.55746299453221,298.34400000000005
81,0.298362,0.298398,0.0,1.59086,41.552449023529455,298.38
82,0.298398,0.298433,0.0,1.59086,41.547505875669046,298.4155
83,0.298433,0.298469,0.0,1.59086,41.5425639037588,298.451
84,0.298469,0.298505,0.0,1.58954,41.53755352709069,298.487
85,0.298505,0.298541,0.0,1.59086,41.53254435886253,298.52299999999997
86,0.298541,0.298577,0.0,1.58823,41.527536398637174,298.559
87,0.298577,0.298613,0.0,1.58954,41.52252964597772,298.595
88,0.298613,0.298649,0.0,1.58823,41.51752410044744,298.631
89,0.298649,0.298685,0.0,1.58823,41.51251976160981,298.66700000000003
90,0.298685,0.298721,0.0,1.58823,41.50751662902856,298.703
91,0.298721,0.298757,0.0,1.58691,41.5025147022676,298.739
92,0.298757,0.298793,0.0,1.58691,41.49751398089102,298.77500000000003
93,0.298793,0.298829,0.0,1.58691,41.49251446446322,298.811
94,0.298829,0.298865,0.0,1.5856,41.487516152548686,298.847
95,0.298865,0.29890100000000003,0.0,1.58691,41.4825190447122,298.88300000000004
96,0.29890100000000003,0.298937,0.0,1.5856,41.47752314051872,298.91900000000004
97,0.298937,0.298973,0.0,1.58429,41.47252843953343,298.955
98,0.298973,0.299009,0.0,1.58429,41.46753494132171,298.991
99,0.299009,0.299045,0.0,1.58429,41.462542645449126,299.02700000000004
100,0.299045,0.299081,0.0,1.58429,41.45755155148152,299.063
101,0.299081,0.299117,0.0,1.58429,41.45256165898487,299.099
102,0.299117,0.299154,0.0,1.5829799999999998,41.44750368859837,299.1355
103,0.299154,0.29919,0.0,1.5829799999999998,41.442446952391,299.17199999999997
104,0.29919,0.29922600000000005,0.0,1.5816700000000001,41.43746069503728,299.208
105,0.29922600000000005,0.299262,0.0,1.5829799999999998,41.43247563740866,299.244
106,0.299262,0.299298,0.0,1.58037,41.42749177907216,299.28
107,0.299298,0.299334,0.0,1.5816700000000001,41.42250911959506,299.31600000000003
108,0.299334,0.29936999999999997,0.0,1.5816700000000001,41.417527658544856,299.352
109,0.29936999999999997,0.299406,0.0,1.58037,41.41254739548919,299.388
110,0.299406,0.29944299999999996,0.0,1.57907,41.40749918473845,299.42449999999997
111,0.29944299999999996,0.299479,0.0,1.58037,41.402452204596656,299.46099999999996
112,0.299479,0.29951500000000003,0.0,1.57907,41.39747556616834,299.497
113,0.29951500000000003,0.299551,0.0,1.57907,41.392500123995404,299.5330000000001
114,0.299551,0.299587,0.0,1.57907,41.38752587764662,299.56899999999996
115,0.299587,0.29962300000000003,0.0,1.5777700000000001,41.38255282669086,299.605
116,0.29962300000000003,0.29966,0.0,1.5777700000000001,41.37751192555343,299.6415
117,0.29966,0.299696,0.0,1.5777700000000001,41.372472252353255,299.678
118,0.299696,0.299732,0.0,1.57647,41.36750281815569,299.71400000000006
119,0.299732,0.299768,0.0,1.5777700000000001,41.36253457761708,299.74999999999994
120,0.299768,0.29980500000000004,0.0,1.57518,41.35749855193853,299.7865
121,0.29980500000000004,0.29984099999999997,0.0,1.57647,41.35246375241632,299.823
122,0.29984099999999997,0.299877,0.0,1.57518,41.34749912339039,299.859
123,0.299877,0.299913,0.0,1.57518,41.342535686292585,299.89500000000004
124,0.299913,0.29995,0.0,1.57518,41.337504529003176,299.9315
125,0.29995,0.29998600000000003,0.0,1.57388,41.332474596092645,299.968
126,0.29998600000000003,0.30002199999999996,0.0,1.57518,41.327514765272184,300.004
127,0.30002199999999996,0.300059,0.0,1.57259,41.32248726302188,300.0405
128,0.300059,0.300095,0.0,1.57388,41.31746098381654,300.07700000000006
129,0.300095,0.300131,0.0,1.57259,41.312504755344555,300.11299999999994
130,0.300131,0.300168,0.0,1.57259,41.30748090415184,300.14949999999993
131,0.300168,0.30020399999999997,0.0,1.57259,41.3024582746721,300.186
132,0.30020399999999997,0.30024,0.0,1.5713,41.29750564462537,300.222
133,0.30024,0.300277,0.0,1.5713,41.29248544051449,300.25849999999997
134,0.300277,0.300313,0.0,1.5713,41.28746645678656,300.29499999999996
135,0.300313,0.300349,0.0,1.5700100000000001,41.28251742124761,300.331
136,0.300349,0.300386,0.0,1.5700100000000001,41.27750086024859,300.3675
137,0.300386,0.30042199999999997,0.0,1.5700100000000001,41.27248551830441,300.404
138,0.30042199999999997,0.300458,0.0,1.5700100000000001,41.26754007336146,300.44
139,0.300458,0.30049499999999996,0.0,1.56873,41.26252715151008,300.4765
140,0.30049499999999996,0.300531,0.0,1.56873,41.25751544738736,300.513
141,0.300531,0.300568,0.0,1.56873,41.25250496054965,300.5495
142,0.300568,0.300604,0.0,1.56745,41.24749569055351,300.586
143,0.300604,0.300641,0.0,1.56745,41.24248763695571,300.6225
144,0.300641,0.30067699999999997,0.0,1.56745,41.23748079931324,300.659
145,0.30067699999999997,0.300714,0.0,1.56745,41.23247517718329,300.6955
146,0.300714,0.30075,0.0,1.56617,41.2274707701233,300.73199999999997
147,0.30075,0.300786,0.0,1.56617,41.22253610637008,300.76800000000003
148,0.300786,0.300823,0.0,1.56489,41.21753411149341,300.8045
149,0.300823,0.300859,0.0,1.56617,41.21253333036626,300.841
150,0.300859,0.300896,0.0,1.56489,41.20753376254694,300.8775
151,0.300896,0.30093200000000003,0.0,1.56361,41.20253540759392,300.914
152,0.30093200000000003,0.300969,0.0,1.56489,41.19753826506591,300.95050000000003
153,0.300969,0.301006,0.0,1.56361,41.19247390553002,300.98749999999995
154,0.301006,0.30104200000000003,0.0,1.56361,41.1874792031224,301.024
155,0.30104200000000003,0.301079,0.0,1.56234,41.18248571181114,301.0605
156,0.301079,0.301115,0.0,1.56234,41.1774934311558,301.097
157,0.301115,0.301152,0.0,1.56234,41.172502360716145,301.1335
158,0.301152,0.301188,0.0,1.56234,41.16751250005218,301.17
159,0.301188,0.301225,0.0,1.5610700000000002,41.1625238487241,301.20650000000006
160,0.301225,0.301262,0.0,1.5610700000000002,41.15746809355461,301.2435
161,0.301262,0.301298,0.0,1.5610700000000002,41.152481876130906,301.28
162,0.301298,0.30133499999999996,0.0,1.5598,41.147496866718946,301.31649999999996
163,0.30133499999999996,0.301371,0.0,1.5610700000000002,41.14251306487978,301.353
164,0.301371,0.301408,0.0,1.55853,41.1375304701747,301.3895
165,0.301408,0.30144499999999996,0.0,1.5598,41.132480852349474,301.4265
166,0.30144499999999996,0.301481,0.0,1.55853,41.12750068711822,301.46299999999997
167,0.301481,0.301518,0.0,1.55853,41.1225217277001,301.4995
168,0.301518,0.301555,0.0,1.55853,41.117475793612776,301.5365
169,0.301555,0.301591,0.0,1.55726,41.1124992610105,301.573
170,0.301591,0.301628,0.0,1.55726,41.107523932902374,301.60949999999997
171,0.301628,0.301665,0.0,1.55726,41.102481678523425,301.64650000000006
172,0.301665,0.301701,0.0,1.556,41.097508774577015,301.68300000000005
173,0.301701,0.301738,0.0,1.556,41.09253707380768,301.71950000000004
174,0.301738,0.301775,0.0,1.556,41.08749849511351,301.75649999999996
175,0.301775,0.30181199999999997,0.0,1.556,41.08246115188272,301.7935
176,0.30181199999999997,0.301848,0.0,1.55473,41.07749309094761,301.83
177,0.301848,0.301885,0.0,1.55473,41.07252623143249,301.86650000000003
178,0.301885,0.30192199999999997,0.0,1.55473,41.06749255851859,301.9035
179,0.30192199999999997,0.30195900000000003,0.0,1.55348,41.06246011926429,301.9405
180,0.30195900000000003,0.30199499999999996,0.0,1.55348,41.057496894269164,301.977
181,0.30199499999999996,0.302032,0.0,1.55348,41.05253486894036,302.01349999999996
182,0.302032,0.30206900000000003,0.0,1.5522200000000002,41.04750609464549,302.0505
183,0.30206900000000003,0.302106,0.0,1.5522200000000002,41.04247855220992,302.08750000000003
184,0.302106,0.302143,0.0,1.5522200000000002,41.03745224118109,302.1245
185,0.302143,0.302179,0.0,1.5522200000000002,41.032495059391245,302.161
186,0.302179,0.302216,0.0,1.5509600000000001,41.02753907507745,302.1975
187,0.302216,0.302253,0.0,1.5509600000000001,41.02251642231684,302.23449999999997
188,0.302253,0.30229,0.0,1.5497100000000001,41.017494999167035,302.2715
189,0.30229,0.302327,0.0,1.5509600000000001,41.01247480517656,302.3085
190,0.302327,0.30236399999999997,0.0,1.5497100000000001,41.00745583989415,302.3455
191,0.30236399999999997,0.3024,0.0,1.5497100000000001,41.00250590194098,302.382
192,0.3024,0.302437,0.0,1.54846,40.9975571588402,302.41850000000005
193,0.302437,0.30247399999999997,0.0,1.54846,40.992541843810805,302.4555
194,0.30247399999999997,0.30251100000000003,0.0,1.54846,40.9875277556988,302.4925
195,0.30251100000000003,0.302548,0.0,1.54721,40.982514894054034,302.5295
196,0.302548,0.302585,0.0,1.54846,40.977503258426566,302.56649999999996
197,0.302585,0.302622,0.0,1.54721,40.97249284836665,302.60350000000005
198,0.302622,0.302659,0.0,1.54596,40.967483663424815,302.6405
199,0.302659,0.302696,0.0,1.54721,40.96247570315175,302.67750000000007
200,0.302696,0.302733,0.0,1.54596,40.95746896709843,302.7145
201,0.302733,0.30277,0.0,1.54471,40.952463454815984,302.75149999999996
202,0.30277,0.302807,0.0,1.54596,40.94745916585576,302.7885
203,0.302807,0.302844,0.0,1.54471,40.9424560997694,302.8255
204,0.302844,0.302881,0.0,1.54471,40.93745425610869,302.8625
205,0.302881,0.30291799999999997,0.0,1.5434700000000001,40.93245363442567,302.8995
206,0.30291799999999997,0.30295500000000003,0.0,1.5434700000000001,40.92745423427259,302.9365
207,0.30295500000000003,0.302992,0.0,1.5434700000000001,40.92245605520191,302.9735
208,0.302992,0.303029,0.0,1.5434700000000001,40.91745909676634,303.0105
209,0.303029,0.303066,0.0,1.54223,40.91246335851877,303.0475
210,0.303066,0.303103,0.0,1.54223,40.90746884001233,303.0845
211,0.303103,0.30314,0.0,1.54223,40.90247554080036,303.1215
212,0.30314,0.303177,0.0,1.5409899999999999,40.897483460436426,303.1585
213,0.303177,0.303214,0.0,1.5409899999999999,40.89249259847432,303.1954999999999
214,0.303214,0.30325100000000005,0.0,1.5409899999999999,40.88750295446799,303.2325
215,0.30325100000000005,0.303288,0.0,1.53975,40.88251452797171,303.26950000000005
216,0.303288,0.303325,0.0,1.53975,40.87752731853988,303.3065
217,0.303325,0.30336199999999997,0.0,1.53975,40.87254132572716,303.3435
218,0.30336199999999997,0.303399,0.0,1.53975,40.86755654908843,303.3804999999999
219,0.303399,0.303437,0.0,1.53851,40.862505651084376,303.41799999999995
220,0.303437,0.30347399999999997,0.0,1.53851,40.85745600142597,303.4555
221,0.30347399999999997,0.30351100000000003,0.0,1.53851,40.85247490346786,303.4925
222,0.30351100000000003,0.303548,0.0,1.53728,40.84749501989335,303.5295
223,0.303548,0.303585,0.0,1.53728,40.84251635025841,303.56649999999996
224,0.303585,0.303622,0.0,1.53728,40.83753889411919,303.60350000000005
225,0.303622,0.30366,0.0,1.53605,40.83249541280894,303.641
226,0.30366,0.303697,0.0,1.53605,40.827453177095904,303.6785
227,0.303697,0.303734,0.0,1.53605,40.82247939153819,303.7155
228,0.303734,0.303771,0.0,1.53482,40.817506817691104,303.7525
229,0.303771,0.30380799999999997,0.0,1.53605,40.812535455111906,303.7895
230,0.30380799999999997,0.303846,0.0,1.53359,40.80749814743495,303.82699999999994
231,0.303846,0.303883,0.0,1.53482,40.802462083069,303.86449999999996
232,0.303883,0.30391999999999997,0.0,1.53359,40.79749438433412,303.9015
233,0.30391999999999997,0.30395700000000003,0.0,1.53359,40.7925278950864,303.9385
234,0.30395700000000003,0.30399499999999996,0.0,1.53359,40.78749552478064,303.976
235,0.30399499999999996,0.304032,0.0,1.53236,40.78246439595846,304.01349999999996
236,0.304032,0.304069,0.0,1.53236,40.777501565169985,304.0505
237,0.304069,0.304106,0.0,1.53236,40.7725399420914,304.0875
238,0.304106,0.304144,0.0,1.53114,40.76751250190125,304.125
239,0.304144,0.304181,0.0,1.53114,40.76248630137087,304.1625
240,0.304181,0.304218,0.0,1.53114,40.75752833137701,304.19949999999994
241,0.304218,0.30425599999999997,0.0,1.53114,40.75250459227747,304.23699999999997
242,0.30425599999999997,0.304293,0.0,1.5299200000000002,40.74748209146911,304.2745
243,0.304293,0.30433000000000004,0.0,1.5299200000000002,40.74252777052696,304.3115
244,0.30433000000000004,0.30436799999999997,0.0,1.5287,40.73750772843255,304.349
245,0.30436799999999997,0.30440500000000004,0.0,1.5299200000000002,40.73248892326275,304.3865
246,0.30440500000000004,0.304442,0.0,1.5287,40.72753824734529,304.4235
247,0.304442,0.30448000000000003,0.0,1.52748,40.72252189817652,304.46099999999996
248,0.30448000000000003,0.304517,0.0,1.5287,40.717506784567796,304.4985
249,0.304517,0.304555,0.0,1.52748,40.71249290606273,304.536
250,0.304555,0.30459200000000003,0.0,1.52626,40.70748026220507,304.5735000000001
251,0.30459200000000003,0.304629,0.0,1.52748,40.70253566321817,304.6105
252,0.304629,0.304667,0.0,1.52626,40.69752547084083,304.648
253,0.304667,0.304704,0.0,1.52626,40.692516511749716,304.6855
254,0.304704,0.304742,0.0,1.52505,40.687508785489506,304.72299999999996
255,0.304742,0.304779,0.0,1.52505,40.68250229160511,304.7605
256,0.304779,0.304817,0.0,1.52505,40.67749702964166,304.798
257,0.304817,0.304854,0.0,1.52505,40.67249299914452,304.8355
258,0.304854,0.304892,0.0,1.5238399999999999,40.66749019965926,304.873
259,0.304892,0.304929,0.0,1.5238399999999999,40.66248863073171,304.91049999999996
260,0.304929,0.304967,0.0,1.5238399999999999,40.65748829190786,304.948
261,0.304967,0.305004,0.0,1.52263,40.65248918273399,304.9855
262,0.305004,0.305042,0.0,1.52263,40.64749130275657,305.02299999999997
263,0.305042,0.305079,0.0,1.52263,40.6424946515223,305.06049999999993
264,0.305079,0.305117,0.0,1.52142,40.63749922857809,305.09799999999996
265,0.305117,0.305154,0.0,1.52142,40.6325050334711,305.1355
266,0.305154,0.305192,0.0,1.52142,40.62751206574866,305.173
267,0.305192,0.305229,0.0,1.52142,40.62252032495841,305.21049999999997
268,0.305229,0.305267,0.0,1.52021,40.61752981064813,305.248
269,0.305267,0.305305,0.0,1.52021,40.612474006802536,305.286
270,0.305305,0.305342,0.0,1.51901,40.60748596043449,305.32349999999997
271,0.305342,0.30538000000000004,0.0,1.51901,40.602499139185156,305.361
272,0.30538000000000004,0.305417,0.0,1.51901,40.597513542603245,305.3985
273,0.305417,0.30545500000000003,0.0,1.51901,40.59252917023768,305.43600000000004
274,0.30545500000000003,0.30549299999999996,0.0,1.51781,40.58747958792144,305.47400000000005
275,0.30549299999999996,0.30553,0.0,1.51781,40.58249767894406,305.5115
276,0.30553,0.305568,0.0,1.51781,40.5775169928251,305.54900000000004
277,0.305568,0.305606,0.0,1.5166,40.57247114452093,305.587
278,0.305606,0.305643,0.0,1.5166,40.56749291905825,305.62449999999995
279,0.305643,0.305681,0.0,1.5166,40.56251591509811,305.662
280,0.305681,0.305719,0.0,1.5154100000000001,40.55747379666575,305.7
281,0.305719,0.305756,0.0,1.5166,40.552499250634014,305.7375
282,0.305756,0.305794,0.0,1.51421,40.547525924750936,305.77500000000003
283,0.305794,0.305832,0.0,1.5154100000000001,40.542487532056256,305.813
